% Be Density=1.848, Angle=90.deg
% Photon Energy (eV), Atten Length (microns)
   2000.00  72.5193
   2010.86  73.7245
   2021.78  74.9499
   2032.76  76.2130
   2043.80  77.5055
   2054.90  78.8199
   2066.06  80.1567
   2077.28  81.5162
   2088.56  82.8989
   2099.91  84.3046
   2111.31  85.7342
   2122.78  87.1878
   2134.30  88.6664
   2145.89  90.1701
   2157.55  91.6992
   2169.27  93.2541
   2181.05  94.8351
   2192.89  96.4429
   2204.80  98.0782
   2216.77  99.7410
   2228.81  101.432
   2240.92  103.152
   2253.09  104.900
   2265.32  106.678
   2277.63  108.487
   2290.00  110.326
   2302.43  112.197
   2314.94  114.098
   2327.51  116.032
   2340.15  117.998
   2352.86  119.998
   2365.63  122.032
   2378.48  124.101
   2391.40  126.204
   2404.39  128.342
   2417.44  130.517
   2430.57  132.728
   2443.77  134.977
   2457.04  137.264
   2470.39  139.590
   2483.80  141.955
   2497.29  144.360
   2510.86  146.805
   2524.49  149.292
   2538.20  151.821
   2551.99  154.392
   2565.84  157.007
   2579.78  159.666
   2593.79  162.369
   2607.88  165.119
   2622.04  167.915
   2636.28  170.758
   2650.60  173.650
   2664.99  176.590
   2679.46  179.580
   2694.02  182.619
   2708.65  185.711
   2723.36  188.855
   2738.15  192.051
   2753.02  195.302
   2767.97  198.607
   2783.00  201.968
   2798.11  205.385
   2813.31  208.860
   2828.59  212.394
   2843.95  215.987
   2859.39  219.641
   2874.92  223.356
   2890.54  227.133
   2906.23  230.974
   2922.02  234.880
   2937.89  238.851
   2953.84  242.890
   2969.88  246.995
   2986.01  251.171
   3002.23  255.416
   3018.53  259.735
   3034.93  264.178
   3051.41  268.729
   3067.98  273.357
   3084.64  278.064
   3101.39  282.852
   3118.24  287.721
   3135.17  292.675
   3152.20  297.713
   3169.32  302.838
   3186.53  308.050
   3203.83  313.351
   3221.23  318.743
   3238.73  324.226
   3256.32  329.803
   3274.00  335.475
   3291.78  341.245
   3309.66  347.113
   3327.63  353.081
   3345.70  359.151
   3363.87  365.326
   3382.14  371.606
   3400.51  377.993
   3418.98  384.488
   3437.54  391.094
   3456.21  397.813
   3474.98  404.648
   3493.85  411.598
   3512.83  418.666
   3531.91  425.854
   3551.09  433.165
   3570.37  440.601
   3589.76  448.163
   3609.26  455.853
   3628.86  463.673
   3648.57  471.625
   3668.38  479.714
   3688.30  487.941
   3708.33  496.306
   3728.47  504.814
   3748.72  513.465
   3769.08  522.264
   3789.55  531.212
   3810.13  540.310
   3830.82  549.562
   3851.63  558.971
   3872.54  568.538
   3893.57  578.268
   3914.72  588.161
   3935.98  598.222
   3957.35  608.453
   3978.85  618.857
   4000.45  629.437
   4022.18  640.197
   4044.02  651.139
   4065.99  662.265
   4088.07  673.579
   4110.27  685.130
   4132.59  696.966
   4155.03  709.003
   4177.60  721.244
   4200.29  733.693
   4223.10  746.354
   4246.03  759.230
   4269.09  772.323
   4292.28  785.639
   4315.59  799.179
   4339.02  812.951
   4362.59  826.953
   4386.28  841.193
   4410.10  855.674
   4434.05  870.399
   4458.13  885.373
   4482.34  900.601
   4506.69  916.083
   4531.16  931.825
   4555.77  947.832
   4580.51  964.109
   4605.39  980.661
   4630.40  997.489
   4655.54  1014.60
   4680.83  1032.00
   4706.25  1049.68
   4731.81  1067.67
   4757.50  1085.95
   4783.34  1104.53
   4809.32  1123.43
   4835.44  1142.64
   4861.70  1162.18
   4888.10  1182.04
   4914.65  1202.23
   4941.34  1222.75
   4968.17  1243.61
   4995.15  1264.82
   5022.28  1286.38
   5049.56  1308.30
   5076.98  1330.58
   5104.55  1353.23
   5132.27  1376.25
   5160.15  1399.65
   5188.17  1423.44
   5216.34  1447.61
   5244.67  1472.38
   5273.16  1497.58
   5301.79  1523.20
   5330.59  1549.23
   5359.54  1575.70
   5388.64  1602.60
   5417.91  1629.94
   5447.33  1657.73
   5476.91  1685.98
   5506.66  1714.68
   5536.56  1743.85
   5566.63  1773.50
   5596.86  1803.63
   5627.26  1834.25
   5657.82  1865.36
   5688.55  1896.97
   5719.44  1929.10
   5750.50  1961.74
   5781.73  1994.91
   5813.13  2028.61
   5844.70  2062.84
   5876.44  2097.63
   5908.35  2132.98
   5940.44  2168.88
   5972.70  2205.35
   6005.14  2242.40
   6037.75  2280.05
   6070.54  2318.29
   6103.51  2357.14
   6136.66  2396.60
   6169.98  2436.67
   6203.49  2477.37
   6237.18  2518.70
   6271.05  2560.69
   6305.11  2603.32
   6339.35  2646.72
   6373.78  2690.99
   6408.39  2735.95
   6443.20  2781.61
   6478.19  2827.97
   6513.37  2875.04
   6548.74  2922.84
   6584.31  2971.36
   6620.07  3020.63
   6656.02  3070.64
   6692.17  3121.41
   6728.51  3172.94
   6765.05  3225.25
   6801.79  3278.36
   6838.73  3332.25
   6875.87  3386.95
   6913.21  3442.45
   6950.75  3498.77
   6988.50  3555.92
   7026.46  3613.92
   7064.62  3672.76
   7102.98  3732.46
   7141.56  3793.03
   7180.34  3854.47
   7219.34  3916.79
   7258.54  3980.00
   7297.96  4044.10
   7337.60  4109.12
   7377.44  4175.06
   7417.51  4241.92
   7457.79  4309.72
   7498.29  4378.45
   7539.02  4448.13
   7579.96  4518.78
   7621.13  4590.40
   7662.51  4662.98
   7704.13  4736.56
   7745.97  4811.14
   7788.03  4886.71
   7830.33  4963.28
   7872.85  5040.86
   7915.61  5119.45
   7958.60  5199.07
   8001.82  5279.72
   8045.27  5361.54
   8088.97  5444.45
   8132.90  5528.40
   8177.06  5613.43
   8221.47  5699.51
   8266.12  5786.66
   8311.01  5874.91
   8356.15  5964.96
   8401.53  6056.12
   8447.16  6148.40
   8493.03  6241.80
   8539.16  6336.34
   8585.53  6431.99
   8632.16  6528.78
   8679.04  6626.71
   8726.17  6725.78
   8773.56  6826.01
   8821.21  6927.37
   8869.11  7029.88
   8917.28  7133.54
   8965.71  7238.36
   9014.40  7344.35
   9063.35  7451.45
   9112.57  7559.70
   9162.06  7669.11
   9211.82  7779.67
   9261.85  7891.38
   9312.15  8004.25
   9362.72  8118.25
   9413.57  8233.39
   9464.69  8349.66
   9516.09  8467.08
   9567.77  8585.61
   9619.73  8705.27
   9671.97  8826.04
   9724.50  8947.92
   9777.31  9070.90
   9830.41  9195.00
   9883.80  9320.18
   9937.47  9446.44
   9991.44  9573.77
   10045.7  9703.05
   10100.3  9833.62
   10155.1  9965.28
   10210.3  10098.0
   10265.7  10231.8
   10321.5  10366.8
   10377.5  10502.7
   10433.9  10639.8
   10490.5  10777.8
   10547.5  10916.9
   10604.8  11056.9
   10662.4  11198.0
   10720.3  11340.1
   10778.5  11483.1
   10837.0  11627.1
   10895.9  11771.9
   10955.1  11917.8
   11014.6  12064.5
   11074.4  12212.2
   11134.5  12360.6
   11195.0  12509.8
   11255.8  12659.9
   11316.9  12810.8
   11378.4  12962.5
   11440.2  13114.9
   11502.3  13268.0
   11564.8  13421.9
   11627.6  13576.4
   11690.7  13731.5
   11754.2  13887.3
   11818.1  14043.7
   11882.2  14200.6
   11946.8  14358.2
   12011.6  14516.2
   12076.9  14674.7
   12142.5  14833.7
   12208.4  14993.0
   12274.7  15152.9
   12341.4  15313.2
   12408.4  15473.8
   12475.8  15635.9
   12543.5  15798.5
   12611.7  15961.3
   12680.1  16124.4
   12749.0  16287.7
   12818.2  16451.1
   12887.9  16614.6
   12957.9  16778.2
   13028.2  16942.0
   13099.0  17105.6
   13170.1  17269.3
   13241.6  17432.9
   13313.5  17596.5
   13385.9  17759.9
   13458.5  17923.2
   13531.6  18086.4
   13605.1  18249.3
   13679.0  18411.9
   13753.3  18574.2
   13828.0  18736.2
   13903.1  18897.8
   13978.6  19059.1
   14054.5  19219.9
   14130.8  19380.3
   14207.6  19540.1
   14284.7  19699.4
   14362.3  19858.2
   14440.3  20016.3
   14518.7  20173.8
   14597.6  20330.7
   14676.9  20486.8
   14756.6  20642.2
   14836.7  20796.8
   14917.3  20950.6
   14998.3  21103.6
   15079.7  21263.2
   15161.6  21422.2
   15244.0  21580.6
   15326.8  21738.3
   15410.0  21895.2
   15493.7  22051.3
   15577.8  22206.6
   15662.4  22361.2
   15747.5  22514.9
   15833.0  22667.7
   15919.0  22819.6
   16005.5  22970.6
   16092.4  23120.7
   16179.8  23269.8
   16267.6  23417.9
   16356.0  23565.6
   16444.8  23712.7
   16534.1  23858.8
   16623.9  24003.8
   16714.2  24147.7
   16805.0  24290.4
   16896.2  24432.0
   16988.0  24572.4
   17080.3  24711.5
   17173.0  24849.5
   17266.3  24986.3
   17360.0  25121.9
   17454.3  25256.2
   17549.1  25389.2
   17644.4  25521.0
   17740.2  25651.4
   17836.6  25780.5
   17933.5  25908.3
   18030.8  26034.8
   18128.8  26159.9
   18227.2  26283.7
   18326.2  26406.1
   18425.7  26527.1
   18525.8  26646.7
   18626.4  26765.0
   18727.6  26881.8
   18829.3  26997.2
   18931.5  27111.3
   19034.3  27223.9
   19137.7  27335.1
   19241.6  27444.9
   19346.1  27553.2
   19451.2  27660.1
   19556.8  27765.6
   19663.1  27869.6
   19769.8  27972.2
   19877.2  28073.3
   19985.2  28173.1
   20093.7  28282.2
   20202.8  28391.9
   20312.5  28500.3
   20422.8  28607.5
   20533.8  28713.4
   20645.3  28818.1
   20757.4  28921.5
   20870.1  29023.8
   20983.5  29124.8
   21097.4  29224.5
   21212.0  29323.0
   21327.2  29420.3
   21443.0  29516.3
   21559.5  29611.2
   21676.6  29704.8
   21794.3  29797.2
   21912.6  29888.4
   22031.6  29978.3
   22151.3  30067.1
   22271.6  30154.7
   22392.5  30241.1
   22514.2  30326.3
   22636.4  30410.3
   22759.4  30493.1
   22883.0  30574.8
   23007.2  30655.3
   23132.2  30734.6
   23257.8  30812.8
   23384.1  30889.9
   23511.1  30965.8
   23638.8  31040.7
   23767.2  31114.3
   23896.2  31186.9
   24026.0  31258.4
   24156.5  31328.8
   24287.7  31398.1
   24419.6  31466.3
   24552.2  31533.5
   24685.5  31599.6
   24819.6  31664.6
   24954.4  31728.6
   25089.9  31791.6
   25226.2  31853.5
   25363.2  31914.5
   25500.9  31974.4
   25639.4  32033.4
   25778.6  32091.3
   25918.6  32148.3
   26059.4  32204.4
   26200.9  32259.5
   26343.2  32313.6
   26486.3  32366.8
   26630.1  32419.0
   26774.7  32470.4
   26920.2  32520.8
   27066.4  32570.4
   27213.3  32619.0
   27361.1  32666.8
   27509.7  32713.7
   27659.1  32759.8
   27809.3  32805.0
   27960.4  32849.4
   28112.2  32893.0
   28264.9  32935.7
   28418.4  32977.7
   28572.7  33018.8
   28727.9  33059.2
   28883.9  33098.7
   29040.8  33137.5
   29198.5  33175.6
   29357.1  33212.9
   29516.5  33249.5
   29676.8  33285.3
   29838.0  33320.4
   30000.0  33354.8