% Si3N4 Density=3.44, Angle=90.deg
% Photon Energy (eV), Atten Length (microns)
   2000.00  1.56856
   2010.86  1.58951
   2021.78  1.61078
   2032.76  1.63240
   2043.80  1.65431
   2054.90  1.67653
   2066.06  1.69907
   2077.28  1.72190
   2088.56  1.74534
   2099.91  1.76925
   2111.31  1.79349
   2122.78  1.81812
   2134.30  1.84312
   2145.89  1.86846
   2157.55  1.89423
   2169.27  1.92039
   2181.05  1.94691
   2192.89  1.97391
   2204.80  2.00133
   2216.77  2.02912
   2228.81  2.05736
   2240.92  2.08600
   2253.09  2.11505
   2265.32  2.14461
   2277.63  2.17461
   2290.00  2.20503
   2302.43  2.23600
   2314.94  2.26742
   2327.51  2.29928
   2340.15  2.33167
   2352.86  2.36453
   2365.63  2.39785
   2378.48  2.43181
   2391.40  2.46626
   2404.39  2.50120
   2417.44  2.53672
   2430.57  2.57274
   2443.77  2.60928
   2457.04  2.64649
   2470.39  2.68423
   2483.80  2.72251
   2497.29  2.76147
   2510.86  2.80098
   2524.49  2.84107
   2538.20  2.88180
   2551.99  2.92312
   2565.84  2.96506
   2579.78  3.00777
   2593.79  3.05110
   2607.88  3.09508
   2622.04  3.13976
   2636.28  3.18510
   2650.60  3.23112
   2664.99  3.27788
   2679.46  3.32531
   2694.02  3.37349
   2708.65  3.42255
   2723.36  3.47234
   2738.15  3.52286
   2753.02  3.57418
   2767.97  3.62624
   2783.00  3.67911
   2798.11  3.73283
   2813.31  3.78734
   2828.59  3.84271
   2843.95  3.89901
   2859.39  3.95613
   2874.92  4.01414
   2890.54  4.07308
   2906.23  4.13288
   2922.02  4.19366
   2937.89  4.25544
   2953.84  4.31814
   2969.88  4.38180
   2986.01  4.44646
   3002.23  4.51206
   3018.53  4.57873
   3034.93  4.64647
   3051.41  4.71521
   3067.98  4.78507
   3084.64  4.85606
   3101.39  4.92810
   3118.24  5.00127
   3135.17  5.07556
   3152.20  5.15095
   3169.32  5.22762
   3186.53  5.30551
   3203.83  5.38457
   3221.23  5.46490
   3238.73  5.54649
   3256.32  5.62929
   3274.00  5.71344
   3291.78  5.79888
   3309.66  5.88559
   3327.63  5.97380
   3345.70  6.06342
   3363.87  6.15438
   3382.14  6.24678
   3400.51  6.34059
   3418.98  6.43581
   3437.54  6.53262
   3456.21  6.63093
   3474.98  6.73074
   3493.85  6.83221
   3512.83  6.93526
   3531.91  7.03986
   3551.09  7.14613
   3570.37  7.25405
   3589.76  7.36357
   3609.26  7.47505
   3628.86  7.58824
   3648.57  7.70315
   3668.38  7.81995
   3688.30  7.93851
   3708.33  8.05887
   3728.47  8.18121
   3748.72  8.30542
   3769.08  8.43153
   3789.55  8.55989
   3810.13  8.69019
   3830.82  8.82249
   3851.63  8.95689
   3872.54  9.09334
   3893.57  9.23193
   3914.72  9.37287
   3935.98  9.51597
   3957.35  9.66129
   3978.85  9.80902
   4000.45  9.95907
   4022.18  10.1114
   4044.02  10.2662
   4065.99  10.4234
   4088.07  10.5830
   4110.27  10.7454
   4132.59  10.9102
   4155.03  11.0777
   4177.60  11.2477
   4200.29  11.4204
   4223.10  11.5959
   4246.03  11.7742
   4269.09  11.9552
   4292.28  12.1391
   4315.59  12.3261
   4339.02  12.5160
   4362.59  12.7088
   4386.28  12.9047
   4410.10  13.1037
   4434.05  13.3058
   4458.13  13.5113
   4482.34  13.7200
   4506.69  13.9320
   4531.16  14.1475
   4555.77  14.3662
   4580.51  14.5885
   4605.39  14.8143
   4630.40  15.0436
   4655.54  15.2767
   4680.83  15.5137
   4706.25  15.7543
   4731.81  15.9987
   4757.50  16.2470
   4783.34  16.4991
   4809.32  16.7553
   4835.44  17.0156
   4861.70  17.2799
   4888.10  17.5486
   4914.65  17.8216
   4941.34  18.0988
   4968.17  18.3804
   4995.15  18.6665
   5022.28  18.9572
   5049.56  19.2528
   5076.98  19.5532
   5104.55  19.8583
   5132.27  20.1682
   5160.15  20.4832
   5188.17  20.8029
   5216.34  21.1278
   5244.67  21.4578
   5273.16  21.7930
   5301.79  22.1338
   5330.59  22.4801
   5359.54  22.8318
   5388.64  23.1891
   5417.91  23.5521
   5447.33  23.9209
   5476.91  24.2958
   5506.66  24.6767
   5536.56  25.0636
   5566.63  25.4569
   5596.86  25.8564
   5627.26  26.2621
   5657.82  26.6746
   5688.55  27.0936
   5719.44  27.5192
   5750.50  27.9518
   5781.73  28.3912
   5813.13  28.8376
   5844.70  29.2912
   5876.44  29.7520
   5908.35  30.2202
   5940.44  30.6962
   5972.70  31.1798
   6005.14  31.6710
   6037.75  32.1704
   6070.54  32.6777
   6103.51  33.1931
   6136.66  33.7167
   6169.98  34.2486
   6203.49  34.7890
   6237.18  35.3381
   6271.05  35.8960
   6305.11  36.4626
   6339.35  37.0383
   6373.78  37.6244
   6408.39  38.2204
   6443.20  38.8256
   6478.19  39.4396
   6513.37  40.0633
   6548.74  40.6971
   6584.31  41.3414
   6620.07  41.9959
   6656.02  42.6611
   6692.17  43.3375
   6728.51  44.0245
   6765.05  44.7227
   6801.79  45.4322
   6838.73  46.1529
   6875.87  46.8851
   6913.21  47.6292
   6950.75  48.3850
   6988.50  49.1533
   7026.46  49.9342
   7064.62  50.7275
   7102.98  51.5337
   7141.56  52.3529
   7180.34  53.1851
   7219.34  54.0309
   7258.54  54.8904
   7297.96  55.7634
   7337.60  56.6510
   7377.44  57.5531
   7417.51  58.4697
   7457.79  59.4010
   7498.29  60.3473
   7539.02  61.3086
   7579.96  62.2856
   7621.13  63.2785
   7662.51  64.2870
   7704.13  65.3123
   7745.97  66.3543
   7788.03  67.4128
   7830.33  68.4888
   7872.85  69.5819
   7915.61  70.6925
   7958.60  71.8215
   8001.82  72.9687
   8045.27  74.1342
   8088.97  75.3192
   8132.90  76.5230
   8177.06  77.7459
   8221.47  78.9891
   8266.12  80.2522
   8311.01  81.5355
   8356.15  82.8402
   8401.53  84.1658
   8447.16  85.5126
   8493.03  86.8816
   8539.16  88.2726
   8585.53  89.6857
   8632.16  91.1226
   8679.04  92.5824
   8726.17  94.0655
   8773.56  95.5736
   8821.21  97.1055
   8869.11  98.6620
   8917.28  100.244
   8965.71  101.851
   9014.40  103.484
   9063.35  105.145
   9112.57  106.832
   9162.06  108.547
   9211.82  110.289
   9261.85  112.059
   9312.15  113.858
   9362.72  115.686
   9413.57  117.543
   9464.69  119.431
   9516.09  121.350
   9567.77  123.300
   9619.73  125.281
   9671.97  127.295
   9724.50  129.342
   9777.31  131.421
   9830.41  133.534
   9883.80  135.682
   9937.47  137.863
   9991.44  140.081
   10045.7  142.335
   10100.3  144.625
   10155.1  146.953
   10210.3  149.319
   10265.7  151.723
   10321.5  154.165
   10377.5  156.648
   10433.9  159.170
   10490.5  161.735
   10547.5  164.340
   10604.8  166.988
   10662.4  169.678
   10720.3  172.412
   10778.5  175.190
   10837.0  178.015
   10895.9  180.884
   10955.1  183.800
   11014.6  186.763
   11074.4  189.773
   11134.5  192.833
   11195.0  195.943
   11255.8  199.103
   11316.9  202.315
   11378.4  205.578
   11440.2  208.894
   11502.3  212.264
   11564.8  215.688
   11627.6  219.168
   11690.7  222.705
   11754.2  226.299
   11818.1  229.951
   11882.2  233.663
   11946.8  237.435
   12011.6  241.266
   12076.9  245.161
   12142.5  249.118
   12208.4  253.138
   12274.7  257.224
   12341.4  261.376
   12408.4  265.594
   12475.8  269.883
   12543.5  274.240
   12611.7  278.668
   12680.1  283.167
   12749.0  287.739
   12818.2  292.383
   12887.9  297.104
   12957.9  301.900
   13028.2  306.773
   13099.0  311.726
   13170.1  316.757
   13241.6  321.867
   13313.5  327.065
   13385.9  332.347
   13458.5  337.711
   13531.6  343.162
   13605.1  348.699
   13679.0  354.324
   13753.3  360.045
   13828.0  365.854
   13903.1  371.756
   13978.6  377.757
   14054.5  383.852
   14130.8  390.044
   14207.6  396.335
   14284.7  402.725
   14362.3  409.217
   14440.3  415.819
   14518.7  422.525
   14597.6  429.337
   14676.9  436.258
   14756.6  443.288
   14836.7  450.431
   14917.3  457.690
   14998.3  465.064
   15079.7  472.561
   15161.6  480.180
   15244.0  487.918
   15326.8  495.779
   15410.0  503.768
   15493.7  511.881
   15577.8  520.125
   15662.4  528.503
   15747.5  537.012
   15833.0  545.658
   15919.0  554.442
   16005.5  563.363
   16092.4  572.426
   16179.8  581.636
   16267.6  590.989
   16356.0  600.491
   16444.8  610.145
   16534.1  619.949
   16623.9  629.909
   16714.2  640.028
   16805.0  650.303
   16896.2  660.742
   16988.0  671.344
   17080.3  682.110
   17173.0  693.051
   17266.3  704.164
   17360.0  715.448
   17454.3  726.911
   17549.1  738.555
   17644.4  750.378
   17740.2  762.388
   17836.6  774.585
   17933.5  786.968
   18030.8  799.549
   18128.8  812.325
   18227.2  825.296
   18326.2  838.473
   18425.7  851.853
   18525.8  865.435
   18626.4  879.237
   18727.6  893.252
   18829.3  907.476
   18931.5  921.925
   19034.3  936.594
   19137.7  951.482
   19241.6  966.608
   19346.1  981.960
   19451.2  997.540
   19556.8  1013.37
   19663.1  1029.44
   19769.8  1045.75
   19877.2  1062.32
   19985.2  1079.13
   20093.7  1096.22
   20202.8  1113.58
   20312.5  1131.20
   20422.8  1149.07
   20533.8  1167.22
   20645.3  1185.63
   20757.4  1204.32
   20870.1  1223.28
   20983.5  1242.53
   21097.4  1262.05
   21212.0  1281.87
   21327.2  1301.97
   21443.0  1322.37
   21559.5  1343.07
   21676.6  1364.06
   21794.3  1385.35
   21912.6  1406.96
   22031.6  1428.88
   22151.3  1451.12
   22271.6  1473.68
   22392.5  1496.55
   22514.2  1519.76
   22636.4  1543.29
   22759.4  1567.16
   22883.0  1591.36
   23007.2  1615.91
   23132.2  1640.80
   23257.8  1666.04
   23384.1  1691.63
   23511.1  1717.58
   23638.8  1743.88
   23767.2  1770.55
   23896.2  1797.59
   24026.0  1824.99
   24156.5  1852.78
   24287.7  1880.93
   24419.6  1909.47
   24552.2  1938.40
   24685.5  1967.72
   24819.6  1997.43
   24954.4  2027.54
   25089.9  2058.04
   25226.2  2088.94
   25363.2  2120.26
   25500.9  2151.98
   25639.4  2184.12
   25778.6  2216.68
   25918.6  2249.66
   26059.4  2283.06
   26200.9  2316.89
   26343.2  2351.14
   26486.3  2385.83
   26630.1  2420.96
   26774.7  2456.52
   26920.2  2492.54
   27066.4  2528.99
   27213.3  2565.89
   27361.1  2603.24
   27509.7  2641.06
   27659.1  2679.32
   27809.3  2718.06
   27960.4  2757.26
   28112.2  2796.91
   28264.9  2837.03
   28418.4  2877.62
   28572.7  2918.67
   28727.9  2960.22
   28883.9  3002.24
   29040.8  3044.73
   29198.5  3087.71
   29357.1  3131.18
   29516.5  3175.11
   29676.8  3219.54
   29838.0  3264.44
   30000.0  3309.83