% Si Density=2.33, Angle=90.deg
% Photon Energy (eV), Atten Length (microns)
   2000.00  1.54901
   2010.86  1.56930
   2021.78  1.58990
   2032.76  1.61082
   2043.80  1.63200
   2054.90  1.65348
   2066.06  1.67526
   2077.28  1.69732
   2088.56  1.71999
   2099.91  1.74314
   2111.31  1.76660
   2122.78  1.79044
   2134.30  1.81463
   2145.89  1.83915
   2157.55  1.86408
   2169.27  1.88939
   2181.05  1.91505
   2192.89  1.94118
   2204.80  1.96770
   2216.77  1.99459
   2228.81  2.02190
   2240.92  2.04961
   2253.09  2.07770
   2265.32  2.10629
   2277.63  2.13531
   2290.00  2.16472
   2302.43  2.19468
   2314.94  2.22506
   2327.51  2.25586
   2340.15  2.28718
   2352.86  2.31894
   2365.63  2.35115
   2378.48  2.38398
   2391.40  2.41728
   2404.39  2.45104
   2417.44  2.48537
   2430.57  2.52019
   2443.77  2.55549
   2457.04  2.59145
   2470.39  2.62791
   2483.80  2.66490
   2497.29  2.70254
   2510.86  2.74071
   2524.49  2.77943
   2538.20  2.81877
   2551.99  2.85867
   2565.84  2.89916
   2579.78  2.94042
   2593.79  2.98226
   2607.88  3.02472
   2622.04  3.06787
   2636.28  3.11163
   2650.60  3.15604
   2664.99  3.20117
   2679.46  3.24695
   2694.02  3.29345
   2708.65  3.34080
   2723.36  3.38884
   2738.15  3.43759
   2753.02  3.48711
   2767.97  3.53733
   2783.00  3.58832
   2798.11  3.64015
   2813.31  3.69272
   2828.59  3.74612
   2843.95  3.80041
   2859.39  3.85550
   2874.92  3.91143
   2890.54  3.96825
   2906.23  4.02589
   2922.02  4.08447
   2937.89  4.14403
   2953.84  4.20446
   2969.88  4.26581
   2986.01  4.32812
   3002.23  4.39133
   3018.53  4.45557
   3034.93  4.52082
   3051.41  4.58703
   3067.98  4.65432
   3084.64  4.72270
   3101.39  4.79208
   3118.24  4.86253
   3135.17  4.93406
   3152.20  5.00665
   3169.32  5.08046
   3186.53  5.15545
   3203.83  5.23156
   3221.23  5.30888
   3238.73  5.38740
   3256.32  5.46708
   3274.00  5.54803
   3291.78  5.63024
   3309.66  5.71365
   3327.63  5.79853
   3345.70  5.88474
   3363.87  5.97224
   3382.14  6.06111
   3400.51  6.15132
   3418.98  6.24288
   3437.54  6.33597
   3456.21  6.43049
   3474.98  6.52643
   3493.85  6.62398
   3512.83  6.72302
   3531.91  6.82354
   3551.09  6.92567
   3570.37  7.02936
   3589.76  7.13458
   3609.26  7.24169
   3628.86  7.35043
   3648.57  7.46081
   3668.38  7.57299
   3688.30  7.68686
   3708.33  7.80243
   3728.47  7.91991
   3748.72  8.03916
   3769.08  8.16022
   3789.55  8.28345
   3810.13  8.40852
   3830.82  8.53549
   3851.63  8.66448
   3872.54  8.79541
   3893.57  8.92837
   3914.72  9.06360
   3935.98  9.20088
   3957.35  9.34027
   3978.85  9.48197
   4000.45  9.62583
   4022.18  9.77189
   4044.02  9.92029
   4065.99  10.0709
   4088.07  10.2240
   4110.27  10.3797
   4132.59  10.5377
   4155.03  10.6982
   4177.60  10.8612
   4200.29  11.0266
   4223.10  11.1948
   4246.03  11.3656
   4269.09  11.5390
   4292.28  11.7152
   4315.59  11.8943
   4339.02  12.0762
   4362.59  12.2609
   4386.28  12.4485
   4410.10  12.6390
   4434.05  12.8326
   4458.13  13.0294
   4482.34  13.2292
   4506.69  13.4322
   4531.16  13.6384
   4555.77  13.8478
   4580.51  14.0605
   4605.39  14.2766
   4630.40  14.4960
   4655.54  14.7191
   4680.83  14.9458
   4706.25  15.1760
   4731.81  15.4098
   4757.50  15.6473
   4783.34  15.8885
   4809.32  16.1335
   4835.44  16.3824
   4861.70  16.6352
   4888.10  16.8921
   4914.65  17.1531
   4941.34  17.4181
   4968.17  17.6873
   4995.15  17.9608
   5022.28  18.2385
   5049.56  18.5211
   5076.98  18.8082
   5104.55  19.0997
   5132.27  19.3960
   5160.15  19.6968
   5188.17  20.0023
   5216.34  20.3127
   5244.67  20.6279
   5273.16  20.9480
   5301.79  21.2735
   5330.59  21.6042
   5359.54  21.9400
   5388.64  22.2812
   5417.91  22.6278
   5447.33  22.9798
   5476.91  23.3378
   5506.66  23.7013
   5536.56  24.0705
   5566.63  24.4459
   5596.86  24.8272
   5627.26  25.2144
   5657.82  25.6080
   5688.55  26.0078
   5719.44  26.4138
   5750.50  26.8265
   5781.73  27.2457
   5813.13  27.6714
   5844.70  28.1041
   5876.44  28.5435
   5908.35  28.9899
   5940.44  29.4439
   5972.70  29.9049
   6005.14  30.3733
   6037.75  30.8494
   6070.54  31.3330
   6103.51  31.8242
   6136.66  32.3233
   6169.98  32.8302
   6203.49  33.3451
   6237.18  33.8684
   6271.05  34.4000
   6305.11  34.9398
   6339.35  35.4882
   6373.78  36.0466
   6408.39  36.6144
   6443.20  37.1909
   6478.19  37.7757
   6513.37  38.3697
   6548.74  38.9732
   6584.31  39.5867
   6620.07  40.2098
   6656.02  40.8431
   6692.17  41.4871
   6728.51  42.1412
   6765.05  42.8057
   6801.79  43.4811
   6838.73  44.1671
   6875.87  44.8640
   6913.21  45.5721
   6950.75  46.2913
   6988.50  47.0223
   7026.46  47.7654
   7064.62  48.5202
   7102.98  49.2872
   7141.56  50.0665
   7180.34  50.8581
   7219.34  51.6626
   7258.54  52.4800
   7297.96  53.3103
   7337.60  54.1544
   7377.44  55.0123
   7417.51  55.8839
   7457.79  56.7694
   7498.29  57.6691
   7539.02  58.5831
   7579.96  59.5119
   7621.13  60.4557
   7662.51  61.4143
   7704.13  62.3889
   7745.97  63.3793
   7788.03  64.3853
   7830.33  65.4079
   7872.85  66.4467
   7915.61  67.5020
   7958.60  68.5748
   8001.82  69.6649
   8045.27  70.7723
   8088.97  71.8980
   8132.90  73.0416
   8177.06  74.2033
   8221.47  75.3841
   8266.12  76.5838
   8311.01  77.8026
   8356.15  79.0418
   8401.53  80.3008
   8447.16  81.5798
   8493.03  82.8798
   8539.16  84.2006
   8585.53  85.5423
   8632.16  86.9067
   8679.04  88.2927
   8726.17  89.7008
   8773.56  91.1326
   8821.21  92.5870
   8869.11  94.0646
   8917.28  95.5661
   8965.71  97.0916
   9014.40  98.6417
   9063.35  100.218
   9112.57  101.820
   9162.06  103.447
   9211.82  105.101
   9261.85  106.781
   9312.15  108.488
   9362.72  110.223
   9413.57  111.985
   9464.69  113.776
   9516.09  115.598
   9567.77  117.448
   9619.73  119.329
   9671.97  121.240
   9724.50  123.181
   9777.31  125.154
   9830.41  127.160
   9883.80  129.197
   9937.47  131.267
   9991.44  133.372
   10045.7  135.509
   10100.3  137.683
   10155.1  139.892
   10210.3  142.136
   10265.7  144.417
   10321.5  146.734
   10377.5  149.089
   10433.9  151.482
   10490.5  153.916
   10547.5  156.388
   10604.8  158.900
   10662.4  161.452
   10720.3  164.046
   10778.5  166.682
   10837.0  169.362
   10895.9  172.085
   10955.1  174.851
   11014.6  177.663
   11074.4  180.519
   11134.5  183.423
   11195.0  186.374
   11255.8  189.373
   11316.9  192.421
   11378.4  195.518
   11440.2  198.665
   11502.3  201.863
   11564.8  205.113
   11627.6  208.416
   11690.7  211.774
   11754.2  215.186
   11818.1  218.653
   11882.2  222.176
   11946.8  225.758
   12011.6  229.396
   12076.9  233.094
   12142.5  236.852
   12208.4  240.670
   12274.7  244.551
   12341.4  248.494
   12408.4  252.501
   12475.8  256.575
   12543.5  260.715
   12611.7  264.922
   12680.1  269.198
   12749.0  273.542
   12818.2  277.956
   12887.9  282.444
   12957.9  287.003
   13028.2  291.636
   13099.0  296.345
   13170.1  301.129
   13241.6  305.990
   13313.5  310.934
   13385.9  315.959
   13458.5  321.062
   13531.6  326.250
   13605.1  331.519
   13679.0  336.874
   13753.3  342.320
   13828.0  347.851
   13903.1  353.472
   13978.6  359.187
   14054.5  364.994
   14130.8  370.894
   14207.6  376.889
   14284.7  382.979
   14362.3  389.168
   14440.3  395.463
   14518.7  401.859
   14597.6  408.357
   14676.9  414.961
   14756.6  421.671
   14836.7  428.488
   14917.3  435.420
   14998.3  442.462
   15079.7  449.621
   15161.6  456.899
   15244.0  464.293
   15326.8  471.806
   15410.0  479.444
   15493.7  487.201
   15577.8  495.086
   15662.4  503.102
   15747.5  511.246
   15833.0  519.523
   15919.0  527.934
   16005.5  536.479
   16092.4  545.164
   16179.8  553.991
   16267.6  562.959
   16356.0  572.072
   16444.8  581.335
   16534.1  590.745
   16623.9  600.308
   16714.2  610.027
   16805.0  619.900
   16896.2  629.933
   16988.0  640.128
   17080.3  650.484
   17173.0  661.013
   17266.3  671.713
   17360.0  682.580
   17454.3  693.627
   17549.1  704.852
   17644.4  716.255
   17740.2  727.843
   17836.6  739.618
   17933.5  751.577
   18030.8  763.734
   18128.8  776.086
   18227.2  788.633
   18326.2  801.386
   18425.7  814.342
   18525.8  827.500
   18626.4  840.880
   18727.6  854.473
   18829.3  868.278
   18931.5  882.309
   19034.3  896.562
   19137.7  911.038
   19241.6  925.753
   19346.1  940.699
   19451.2  955.875
   19556.8  971.309
   19663.1  986.984
   19769.8  1002.90
   19877.2  1019.09
   19985.2  1035.53
   20093.7  1052.25
   20202.8  1069.23
   20312.5  1086.48
   20422.8  1104.00
   20533.8  1121.79
   20645.3  1139.85
   20757.4  1158.20
   20870.1  1176.84
   20983.5  1195.76
   21097.4  1214.98
   21212.0  1234.50
   21327.2  1254.32
   21443.0  1274.44
   21559.5  1294.88
   21676.6  1315.63
   21794.3  1336.70
   21912.6  1358.10
   22031.6  1379.82
   22151.3  1401.88
   22271.6  1424.28
   22392.5  1447.01
   22514.2  1470.10
   22636.4  1493.53
   22759.4  1517.32
   22883.0  1541.47
   23007.2  1566.00
   23132.2  1590.88
   23257.8  1616.15
   23384.1  1641.80
   23511.1  1667.83
   23638.8  1694.24
   23767.2  1721.06
   23896.2  1748.28
   24026.0  1775.90
   24156.5  1803.93
   24287.7  1832.38
   24419.6  1861.25
   24552.2  1890.55
   24685.5  1920.27
   24819.6  1950.44
   24954.4  1981.05
   25089.9  2012.11
   25226.2  2043.61
   25363.2  2075.58
   25500.9  2108.01
   25639.4  2140.92
   25778.6  2174.30
   25918.6  2208.15
   26059.4  2242.50
   26200.9  2277.33
   26343.2  2312.66
   26486.3  2348.49
   26630.1  2384.83
   26774.7  2421.68
   26920.2  2459.06
   27066.4  2496.96
   27213.3  2535.38
   27361.1  2574.34
   27509.7  2613.85
   27659.1  2653.90
   27809.3  2694.52
   27960.4  2735.68
   28112.2  2777.40
   28264.9  2819.70
   28418.4  2862.57
   28572.7  2906.01
   28727.9  2950.05
   28883.9  2994.68
   29040.8  3039.90
   29198.5  3085.73
   29357.1  3132.18
   29516.5  3179.22
   29676.8  3226.88
   29838.0  3275.16
   30000.0  3324.06